;RAW4.00
[RawHeader]
Date=06/04/2024
EstimatedTotalTime=379.443
FurtherDQLReading=0
HardwareIndicator=65519
MeasuredTotalTime=379.443
MeasurementFlag=1
NumberOfMeasuredRanges=1
NumberOfRanges=1
Time=20:56:25

[VarInfo]
Type=USER
Flags=0
Value=Lab Manager

[VarInfo]
Type=SAMPLEID
Flags=0
Value=Commander Sample ID

[VarInfo]
Type=COMMENT
Flags=0
Value=

[VarInfo]
Type=UTF
Flags=0
Value=

[VarInfo]
Type=CREATOR
Flags=0
Value=BrmlToV4Converter

[VarInfo]
Type=CREATOR_VERSION
Flags=0
Value=7.3.1.0

[HardwareConfiguration]
AbsorptionFactor=9999
ActivateAbsorber=0
Alpha1=1.5406
Alpha2=1.54439
AlphaAverage=1.5418
AlphaRatio=0.5
Analyzer=0
Anode=Cu
AntiScatteringSlit=18
BeamOpticsFlags=0
Beta=1.39222
BetaRelativeIntensity=0
DeactivateAbsorber=0
DetectorSlit=9999
DivergenceSlit=0.6
GoniometerControl=0
GoniometerDiameter=560
GoniometerModel=512
GoniometerStage=9
Monochromator=0
NearSampleSlit=9999
PrimarySollerSlit=2.5
SampleChanger=0
SecondSollerSlit=2.5
SynchronousAxis=0
ThinFilmAttachment=9999
WaveUnit=A

[RangeHeader]
ActuallyUsedLambda=1.5418
AdditionalDetectorMask=257
DataRecordLength=4
DelayTime=0
DisplayPlaneNumber=0
EstimatedScanTime=379
ExtraParametersMask=0
GeneratorCurrent=40
GeneratorVoltage=40
Increment=0.0855227
Increment3=0
NumberOfCompletedData=878
NumberOfCounts=1
NumberOfDetectors=0
NumberOfDrives=5
NumberOfEncoderDrives=0
NumberOfMeasuredData=878
NumberOfVaryingParameters=0
RangeStartTime=0
RotationSpeed=0
ScanMode=1
ScanType=Locked Coupled
SimulatedMeasConditions=0
SlitChangerIn=0
SmootingWidth=0
Start=5.0001
Steps=878
SynchronousRotation=0
Time=76.8

[VarInfo]
Type=PSD_DISCRIM
Flags=0
Value=0.216;0.24

[PSD]
ActualTwoTheta=9999
FirstUsedChannel=0
FixedPSD=0
PSDOpening=2.93221
PSDType=5

[Drive]
DriveFlags=1
DriveName=2Theta
DriveNumber=2
DriveOffset=0
OffsetIndex=0
OscillationAmplitude=0
OscillationSpeed=0
StartPosition=5.0001

[Drive]
DriveFlags=1
DriveName=Theta
DriveNumber=1
DriveOffset=0
OffsetIndex=0
OscillationAmplitude=0
OscillationSpeed=0
StartPosition=2.50005

[Drive]
DriveFlags=0
DriveName=X-Drive
DriveNumber=5
DriveOffset=0
OffsetIndex=0
OscillationAmplitude=0
OscillationSpeed=0
StartPosition=-0

[Drive]
DriveFlags=0
DriveName=Y-Drive
DriveNumber=6
DriveOffset=0
OffsetIndex=0
OscillationAmplitude=0
OscillationSpeed=0
StartPosition=-0

[Drive]
DriveFlags=0
DriveName=Z-Drive
DriveNumber=7
DriveOffset=0
OffsetIndex=0
OscillationAmplitude=0
OscillationSpeed=0
StartPosition=-0

[Data]
     Angle,       PSD,
    5.0001,       507,
   5.08562,       487,
   5.17115,       474,
   5.25667,       510,
   5.34219,       468,
   5.42771,       427,
   5.51324,       431,
   5.59876,       436,
   5.68428,       417,
    5.7698,       436,
   5.85533,       409,
   5.94085,       401,
   6.02637,       425,
    6.1119,       386,
   6.19742,       378,
   6.28294,       381,
   6.36846,       355,
   6.45399,       330,
   6.53951,       299,
   6.62503,       278,
   6.71055,       284,
   6.79608,       285,
    6.8816,       293,
   6.96712,       262,
   7.05264,       270,
   7.13817,       260,
   7.22369,       250,
   7.30921,       260,
   7.39474,       237,
   7.48026,       228,
   7.56578,       230,
    7.6513,       219,
   7.73683,       193,
   7.82235,       208,
   7.90787,       183,
   7.99339,       205,
   8.07892,       187,
   8.16444,       169,
   8.24996,       182,
   8.33549,       188,
   8.42101,       183,
   8.50653,       175,
   8.59205,       205,
   8.67758,       172,
    8.7631,       158,
   8.84862,       187,
   8.93414,       185,
   9.01967,       161,
   9.10519,       163,
   9.19071,       145,
   9.27624,       155,
   9.36176,       158,
   9.44728,       173,
    9.5328,       143,
   9.61833,       134,
   9.70385,       155,
   9.78937,       105,
   9.87489,       139,
   9.96042,       132,
   10.0459,       136,
   10.1315,       135,
    10.217,       120,
   10.3025,       111,
    10.388,       128,
   10.4736,       137,
   10.5591,       128,
   10.6446,       119,
   10.7301,       121,
   10.8156,       120,
   10.9012,       119,
   10.9867,       110,
   11.0722,        98,
   11.1577,       106,
   11.2433,       119,
   11.3288,       119,
   11.4143,       106,
   11.4998,       110,
   11.5853,        90,
   11.6709,       112,
   11.7564,       101,
   11.8419,       119,
   11.9274,       109,
    12.013,       121,
   12.0985,       120,
    12.184,       110,
   12.2695,       135,
   12.3551,       104,
   12.4406,       128,
   12.5261,       113,
   12.6116,       111,
   12.6971,       116,
   12.7827,       100,
   12.8682,        92,
   12.9537,        93,
   13.0392,        91,
   13.1248,        94,
   13.2103,        68,
   13.2958,        92,
   13.3813,       109,
   13.4668,        92,
   13.5524,        73,
   13.6379,        84,
   13.7234,        90,
   13.8089,        86,
   13.8945,        64,
     13.98,       102,
   14.0655,        78,
    14.151,        79,
   14.2366,        81,
   14.3221,        87,
   14.4076,        68,
   14.4931,        84,
   14.5786,        67,
   14.6642,        63,
   14.7497,        67,
   14.8352,        77,
   14.9207,        67,
   15.0063,        64,
   15.0918,        75,
   15.1773,        89,
   15.2628,        79,
   15.3483,        55,
   15.4339,        71,
   15.5194,        62,
   15.6049,        70,
   15.6904,        81,
    15.776,        69,
   15.8615,        74,
    15.947,        66,
   16.0325,        54,
   16.1181,        60,
   16.2036,        58,
   16.2891,        78,
   16.3746,        56,
   16.4601,        58,
   16.5457,        67,
   16.6312,        62,
   16.7167,        62,
   16.8022,        58,
   16.8878,        62,
   16.9733,        80,
   17.0588,        67,
   17.1443,        56,
   17.2298,        76,
   17.3154,        70,
   17.4009,        59,
   17.4864,        66,
   17.5719,        56,
   17.6575,        63,
    17.743,        57,
   17.8285,        98,
    17.914,        74,
   17.9996,        73,
   18.0851,        60,
   18.1706,        67,
   18.2561,        70,
   18.3416,        65,
   18.4272,        55,
   18.5127,        75,
   18.5982,        65,
   18.6837,        54,
   18.7693,        51,
   18.8548,        71,
   18.9403,        73,
   19.0258,        63,
   19.1113,        64,
   19.1969,        73,
   19.2824,        54,
   19.3679,        82,
   19.4534,        81,
    19.539,        91,
   19.6245,        93,
     19.71,       126,
   19.7955,       172,
    19.881,       199,
   19.9666,       202,
   20.0521,       191,
   20.1376,       166,
   20.2231,       147,
   20.3087,       135,
   20.3942,       139,
   20.4797,       122,
   20.5652,       146,
   20.6508,       112,
   20.7363,       138,
   20.8218,       137,
   20.9073,       321,
   20.9928,       629,
   21.0784,       253,
   21.1639,       154,
   21.2494,       109,
   21.3349,       128,
   21.4205,       113,
    21.506,       123,
   21.5915,       103,
    21.677,       114,
   21.7625,       120,
   21.8481,       118,
   21.9336,       114,
   22.0191,       107,
   22.1046,       113,
   22.1902,       105,
   22.2757,       102,
   22.3612,        99,
   22.4467,       107,
   22.5323,        88,
   22.6178,        89,
   22.7033,        99,
   22.7888,        92,
   22.8743,       111,
   22.9599,       111,
   23.0454,       150,
   23.1309,       290,
   23.2164,       439,
    23.302,       259,
   23.3875,       139,
    23.473,       104,
   23.5585,       100,
    23.644,       118,
   23.7296,       123,
   23.8151,       107,
   23.9006,       104,
   23.9861,       103,
   24.0717,        96,
   24.1572,        84,
   24.2427,       106,
   24.3282,       100,
   24.4138,       118,
   24.4993,       121,
   24.5848,        98,
   24.6703,        95,
   24.7558,       116,
   24.8414,       118,
   24.9269,       110,
   25.0124,       126,
   25.0979,       117,
   25.1835,       110,
    25.269,       119,
   25.3545,       123,
     25.44,       111,
   25.5255,       132,
   25.6111,       106,
   25.6966,       117,
   25.7821,       127,
   25.8676,       107,
   25.9532,        80,
   26.0387,       113,
   26.1242,        79,
   26.2097,       120,
   26.2953,       103,
   26.3808,       111,
   26.4663,       124,
   26.5518,       152,
   26.6373,       272,
   26.7229,      1361,
   26.8084,      1340,
   26.8939,       311,
   26.9794,       164,
    27.065,       163,
   27.1505,       157,
    27.236,       113,
   27.3215,       119,
    27.407,        91,
   27.4926,       127,
   27.5781,       175,
   27.6636,       144,
   27.7491,       146,
   27.8347,       118,
   27.9202,       103,
   28.0057,       121,
   28.0912,       140,
   28.1768,        91,
   28.2623,        92,
   28.3478,       100,
   28.4333,        95,
   28.5188,        86,
   28.6044,       123,
   28.6899,       106,
   28.7754,        94,
   28.8609,       110,
   28.9465,       104,
    29.032,       100,
   29.1175,       119,
    29.203,       151,
   29.2885,       226,
   29.3741,       423,
   29.4596,      1514,
   29.5451,      4244,
   29.6306,      2568,
   29.7162,       679,
   29.8017,       256,
   29.8872,       165,
   29.9727,       152,
   30.0583,       141,
   30.1438,       123,
   30.2293,       141,
   30.3148,       144,
   30.4003,       100,
   30.4859,        85,
   30.5714,       104,
   30.6569,        83,
   30.7424,        76,
    30.828,       116,
   30.9135,       114,
    30.999,       125,
   31.0845,       125,
     31.17,        85,
   31.2556,        63,
   31.3411,        92,
   31.4266,        87,
   31.5121,        98,
   31.5977,       153,
   31.6832,       112,
   31.7687,        74,
   31.8542,        62,
   31.9398,        80,
   32.0253,        68,
   32.1108,        58,
   32.1963,        74,
   32.2818,        58,
   32.3674,        63,
   32.4529,        45,
   32.5384,        63,
   32.6239,        51,
   32.7095,        61,
    32.795,        48,
   32.8805,        65,
    32.966,        61,
   33.0515,        67,
   33.1371,        57,
   33.2226,        55,
   33.3081,        39,
   33.3936,        65,
   33.4792,        52,
   33.5647,        51,
   33.6502,        45,
   33.7357,        68,
   33.8212,        51,
   33.9068,        59,
   33.9923,        52,
   34.0778,        55,
   34.1633,        62,
   34.2489,        58,
   34.3344,        56,
   34.4199,        64,
   34.5054,        82,
    34.591,        91,
   34.6765,        97,
    34.762,       106,
   34.8475,       102,
    34.933,       131,
   35.0186,       134,
   35.1041,       137,
   35.1896,       132,
   35.2751,       112,
   35.3607,       149,
   35.4462,        85,
   35.5317,        96,
   35.6172,       112,
   35.7027,       104,
   35.7883,       107,
   35.8738,       117,
   35.9593,       150,
   36.0448,       327,
   36.1304,       567,
   36.2159,       411,
   36.3014,       174,
   36.3869,       129,
   36.4725,        96,
    36.558,       121,
   36.6435,       191,
    36.729,       164,
   36.8145,       115,
   36.9001,        82,
   36.9856,        96,
   37.0711,        72,
   37.1566,        84,
   37.2422,        93,
   37.3277,        91,
   37.4132,        91,
   37.4987,        71,
   37.5842,        84,
   37.6698,        80,
   37.7553,        76,
   37.8408,        76,
   37.9263,       104,
   38.0119,        81,
   38.0974,        89,
   38.1829,        85,
   38.2684,        82,
    38.354,        65,
   38.4395,        75,
    38.525,        99,
   38.6105,        84,
    38.696,        77,
   38.7816,        80,
   38.8671,        75,
   38.9526,        80,
   39.0381,        81,
   39.1237,        66,
   39.2092,        91,
   39.2947,       105,
   39.3802,       130,
   39.4657,       340,
   39.5513,       882,
   39.6368,       684,
   39.7223,       327,
   39.8078,       146,
   39.8934,       103,
   39.9789,        76,
   40.0644,        70,
   40.1499,        67,
   40.2355,        71,
    40.321,       100,
   40.4065,       157,
    40.492,       133,
   40.5775,        87,
   40.6631,        59,
   40.7486,        56,
   40.8341,        62,
   40.9196,        44,
   41.0052,        63,
   41.0907,        61,
   41.1762,        76,
   41.2617,        90,
   41.3472,        82,
   41.4328,        63,
   41.5183,        69,
   41.6038,        63,
   41.6893,        54,
   41.7749,        50,
   41.8604,        68,
   41.9459,        88,
   42.0314,        69,
    42.117,        56,
   42.2025,        60,
    42.288,        63,
   42.3735,        85,
    42.459,        68,
   42.5446,       145,
   42.6301,        93,
   42.7156,        88,
   42.8011,        60,
   42.8867,        75,
   42.9722,        85,
   43.0577,        81,
   43.1432,       117,
   43.2287,       314,
   43.3143,       704,
   43.3998,       519,
   43.4853,       248,
   43.5708,       116,
   43.6564,        66,
   43.7419,        58,
   43.8274,        71,
   43.9129,        56,
   43.9985,        63,
    44.084,        45,
   44.1695,        57,
    44.255,        48,
   44.3405,        40,
   44.4261,        64,
   44.5116,        57,
   44.5971,        50,
   44.6826,        49,
   44.7682,        58,
   44.8537,        54,
   44.9392,        48,
   45.0247,        55,
   45.1102,        61,
   45.1958,        61,
   45.2813,        73,
   45.3668,        61,
   45.4523,        61,
   45.5379,        64,
   45.6234,        69,
   45.7089,        62,
   45.7944,        77,
     45.88,       103,
   45.9655,        80,
    46.051,        69,
   46.1365,        67,
    46.222,        53,
   46.3076,        62,
   46.3931,        53,
   46.4786,        60,
   46.5641,        55,
   46.6497,        44,
   46.7352,        54,
   46.8207,        47,
   46.9062,        71,
   46.9917,        78,
   47.0773,        74,
   47.1628,       170,
   47.2483,       247,
   47.3338,       277,
   47.4194,       206,
   47.5049,       216,
   47.5904,       486,
   47.6759,       582,
   47.7615,       445,
    47.847,       250,
   47.9325,       139,
    48.018,        94,
   48.1035,        82,
   48.1891,        80,
   48.2746,        97,
   48.3601,        90,
   48.4456,       159,
   48.5312,       210,
   48.6167,       625,
   48.7022,       585,
   48.7877,       470,
   48.8732,       206,
   48.9588,       112,
   49.0443,        91,
   49.1298,        76,
   49.2153,        62,
   49.3009,        67,
   49.3864,        59,
   49.4719,        56,
   49.5574,        39,
   49.6429,        33,
   49.7285,        57,
    49.814,        50,
   49.8995,        48,
    49.985,        60,
   50.0706,        60,
   50.1561,       104,
   50.2416,       209,
   50.3271,       145,
   50.4127,       115,
   50.4982,        65,
   50.5837,        62,
   50.6692,        45,
   50.7547,        76,
   50.8403,        58,
   50.9258,        50,
   51.0113,        48,
   51.0968,        58,
   51.1824,        51,
   51.2679,        44,
   51.3534,        50,
   51.4389,        45,
   51.5244,        31,
     51.61,        50,
   51.6955,        42,
    51.781,        50,
   51.8665,        33,
   51.9521,        44,
   52.0376,        47,
   52.1231,        32,
   52.2086,        40,
   52.2942,        50,
   52.3797,        34,
   52.4652,        47,
   52.5507,        31,
   52.6362,        55,
   52.7218,        39,
   52.8073,        42,
   52.8928,        60,
   52.9783,        46,
   53.0639,        42,
   53.1494,        42,
   53.2349,        41,
   53.3204,        47,
   53.4059,        46,
   53.4915,        66,
    53.577,        45,
   53.6625,        56,
    53.748,        55,
   53.8336,        64,
   53.9191,        56,
   54.0046,        69,
   54.0901,        51,
   54.1757,        60,
   54.2612,        54,
   54.3467,        56,
   54.4322,        52,
   54.5177,        56,
   54.6033,        63,
   54.6888,        48,
   54.7743,        68,
   54.8598,        68,
   54.9454,        94,
   55.0309,        94,
   55.1164,        80,
   55.2019,        66,
   55.2874,        61,
    55.373,        68,
   55.4585,        78,
    55.544,        60,
   55.6295,        65,
   55.7151,        44,
   55.8006,        48,
   55.8861,        63,
   55.9716,        61,
   56.0572,        42,
   56.1427,        48,
   56.2282,        43,
   56.3137,        53,
   56.3992,        73,
   56.4848,        66,
   56.5703,        66,
   56.6558,       160,
   56.7413,       152,
   56.8269,       123,
   56.9124,        83,
   56.9979,        63,
   57.0834,        62,
   57.1689,        60,
   57.2545,        70,
     57.34,        73,
   57.4255,       130,
    57.511,       284,
   57.5966,       227,
   57.6821,       240,
   57.7676,       153,
   57.8531,        95,
   57.9387,        74,
   58.0242,        65,
   58.1097,        65,
   58.1952,        83,
   58.2807,        79,
   58.3663,        55,
   58.4518,        53,
   58.5373,        68,
   58.6228,        48,
   58.7084,        51,
   58.7939,        44,
   58.8794,        48,
   58.9649,        55,
   59.0504,        42,
    59.136,        44,
   59.2215,        44,
    59.307,        35,
   59.3925,        49,
   59.4781,        36,
   59.5636,        40,
   59.6491,        48,
   59.7346,        39,
   59.8202,        52,
   59.9057,        59,
   59.9912,       132,
   60.0767,       172,
   60.1622,       108,
   60.2478,       111,
   60.3333,        61,
   60.4188,        64,
   60.5043,        62,
   60.5899,        67,
   60.6754,        88,
   60.7609,       173,
   60.8464,       231,
   60.9319,       162,
   61.0175,       179,
    61.103,       124,
   61.1885,       135,
    61.274,       121,
   61.3596,       121,
   61.4451,       128,
   61.5306,       138,
   61.6161,       120,
   61.7017,       120,
   61.7872,       104,
   61.8727,        96,
   61.9582,        89,
   62.0437,        78,
   62.1293,        75,
   62.2148,        78,
   62.3003,        60,
   62.3858,        71,
   62.4714,        68,
   62.5569,        62,
   62.6424,        50,
   62.7279,        53,
   62.8134,        64,
    62.899,        53,
   62.9845,        49,
     63.07,        72,
   63.1555,       111,
   63.2411,       110,
   63.3266,        88,
   63.4121,        71,
   63.4976,        77,
   63.5831,        50,
   63.6687,        47,
   63.7542,        51,
   63.8397,        57,
   63.9252,        41,
   64.0108,        44,
   64.0963,        73,
   64.1818,        60,
   64.2673,        64,
   64.3529,        41,
   64.4384,        42,
   64.5239,        51,
   64.6094,        72,
   64.6949,       111,
   64.7805,       220,
    64.866,       196,
   64.9515,       165,
    65.037,       138,
   65.1226,        82,
   65.2081,        53,
   65.2936,        59,
   65.3791,        50,
   65.4646,        52,
   65.5502,        48,
   65.6357,        96,
   65.7212,       114,
   65.8067,       124,
   65.8923,        89,
   65.9778,        97,
   66.0633,        53,
   66.1488,        42,
   66.2344,        52,
   66.3199,        42,
   66.4054,        49,
   66.4909,        44,
   66.5764,        49,
    66.662,        46,
   66.7475,        30,
    66.833,        30,
   66.9185,        38,
   67.0041,        38,
   67.0896,        42,
   67.1751,        36,
   67.2606,        37,
   67.3461,        42,
   67.4317,        33,
   67.5172,        43,
   67.6027,        42,
   67.6882,        44,
   67.7738,        92,
   67.8593,       104,
   67.9448,        72,
   68.0303,        98,
   68.1159,        77,
   68.2014,       123,
   68.2869,        96,
   68.3724,       117,
   68.4579,       102,
   68.5435,        67,
    68.629,        66,
   68.7145,        52,
      68.8,        38,
   68.8856,        38,
   68.9711,        50,
   69.0566,        56,
   69.1421,        47,
   69.2276,        60,
   69.3132,        88,
   69.3987,        61,
   69.4842,        65,
   69.5697,        61,
   69.6553,        57,
   69.7408,        48,
   69.8263,        53,
   69.9118,        59,
   69.9974,        51,
   70.0829,        38,
   70.1684,        55,
   70.2539,        55,
   70.3394,        75,
    70.425,        85,
   70.5105,        75,
    70.596,        66,
   70.6815,        51,
   70.7671,        33,
   70.8526,        46,
   70.9381,        49,
   71.0236,        34,
   71.1091,        35,
   71.1947,        40,
   71.2802,        30,
   71.3657,        42,
   71.4512,        41,
   71.5368,        37,
   71.6223,        36,
   71.7078,        33,
   71.7933,        35,
   71.8789,        28,
   71.9644,        43,
   72.0499,        50,
   72.1354,        40,
   72.2209,        43,
   72.3065,        40,
    72.392,        40,
   72.4775,        58,
    72.563,        43,
   72.6486,        45,
   72.7341,        52,
   72.8196,        69,
   72.9051,        80,
   72.9906,       111,
   73.0762,       117,
   73.1617,       116,
   73.2472,        80,
   73.3327,        69,
   73.4183,        73,
   73.5038,        83,
   73.5893,       100,
   73.6748,        51,
   73.7604,        61,
   73.8459,        67,
   73.9314,        52,
   74.0169,        59,
   74.1024,        51,
    74.188,        40,
   74.2735,        46,
    74.359,        40,
   74.4445,        47,
   74.5301,        59,
   74.6156,        37,
   74.7011,        43,
   74.7866,        45,
   74.8721,        43,
   74.9577,        38,
   75.0432,        43,
   75.1287,        44,
   75.2142,        39,
   75.2998,        42,
   75.3853,        27,
   75.4708,        40,
   75.5563,        36,
   75.6419,        79,
   75.7274,       152,
   75.8129,        87,
   75.8984,        74,
   75.9839,       121,
   76.0695,        63,
    76.155,        53,
   76.2405,        48,
    76.326,        61,
   76.4116,        81,
   76.4971,        74,
   76.5826,        71,
   76.6681,        58,
   76.7536,        53,
   76.8392,        45,
   76.9247,        47,
   77.0102,        59,
   77.0957,        51,
   77.1813,        67,
   77.2668,        90,
   77.3523,        80,
   77.4378,        85,
   77.5233,        63,
   77.6089,        66,
   77.6944,        57,
   77.7799,        63,
   77.8654,        48,
    77.951,        43,
   78.0365,        45,
    78.122,        33,
   78.2075,        34,
   78.2931,        40,
   78.3786,        37,
   78.4641,        30,
   78.5496,        30,
   78.6351,        25,
   78.7207,        40,
   78.8062,        24,
   78.8917,        51,
   78.9772,        27,
   79.0628,        26,
   79.1483,        38,
   79.2338,        35,
   79.3193,        39,
   79.4048,        42,
   79.4904,        27,
   79.5759,        29,
   79.6614,        33,
   79.7469,        40,
   79.8325,        43,
    79.918,        52,
   80.0035,        57,
